E1 [GeV],E2 [GeV],E1+(E2-E1)/2,s [GeV^2],sigma [nb],err. sigma [nb] bare,alphaRatio,alphaRatioL,alphaRatioH
0.3000,0.3100,0.3050,0.0930,25.49044,2.69943,1.00713,1.00712,1.00714
0.3100,0.3200,0.3150,0.0992,35.48012,2.91464,1.00719,1.00718,1.00720
0.3200,0.3300,0.3250,0.1056,45.48580,3.04669,1.00725,1.00724,1.00726
0.3300,0.3400,0.3350,0.1122,51.78247,3.13355,1.00731,1.00730,1.00732
0.3400,0.3500,0.3450,0.1190,64.41565,3.49953,1.00734,1.00733,1.00735
0.3500,0.3600,0.3550,0.1260,75.21048,3.86247,1.00736,1.00735,1.00737
0.3600,0.3700,0.3650,0.1332,80.19985,3.87376,1.00737,1.00736,1.00738
0.3700,0.3800,0.3750,0.1406,86.38045,4.02805,1.00738,1.00737,1.00739
0.3800,0.3900,0.3850,0.1482,102.43807,4.31976,1.00738,1.00737,1.00739
0.3900,0.4000,0.3950,0.1560,104.70980,3.96803,1.00737,1.00736,1.00738
0.4000,0.4100,0.4050,0.1640,118.25201,4.09898,1.00735,1.00734,1.00736
0.4100,0.4200,0.4150,0.1722,118.00036,3.90209,1.00733,1.00731,1.00734
0.4200,0.4300,0.4250,0.1806,127.67479,4.17054,1.00729,1.00728,1.00731
0.4300,0.4400,0.4350,0.1892,129.27812,3.83703,1.00725,1.00724,1.00727
0.4400,0.4500,0.4450,0.1980,137.05648,4.08884,1.00720,1.00718,1.00722
0.4500,0.4600,0.4550,0.2070,138.77953,3.80708,1.00714,1.00712,1.00716
0.4600,0.4700,0.4650,0.2162,149.93345,4.05805,1.00706,1.00704,1.00708
0.4700,0.4800,0.4750,0.2256,161.27412,4.29024,1.00704,1.00702,1.00706
0.4800,0.4900,0.4850,0.2352,167.65932,4.29975,1.00688,1.00686,1.00690
0.4900,0.5000,0.4950,0.2450,170.77722,4.09567,1.00676,1.00673,1.00678
0.5000,0.5020,0.5010,0.2510,170.49035,4.94587,1.00668,1.00665,1.00670
0.5020,0.5040,0.5030,0.2530,173.41868,4.53398,1.00665,1.00662,1.00667
0.5040,0.5060,0.5050,0.2550,177.17188,4.50925,1.00662,1.00659,1.00664
0.5060,0.5080,0.5070,0.2570,175.92306,4.79673,1.00659,1.00656,1.00661
0.5080,0.5100,0.5090,0.2591,176.44376,5.32704,1.00655,1.00653,1.00658
0.5100,0.5120,0.5110,0.2611,178.93981,5.10733,1.00652,1.00650,1.00655
0.5120,0.5140,0.5130,0.2632,188.55963,5.72383,1.00649,1.00646,1.00652
0.5140,0.5160,0.5150,0.2652,185.02557,5.34796,1.00646,1.00643,1.00649
0.5160,0.5180,0.5170,0.2673,187.88446,4.52075,1.00643,1.00640,1.00646
0.5180,0.5200,0.5190,0.2694,191.17260,4.83832,1.00640,1.00637,1.00643
0.5200,0.5220,0.5210,0.2714,186.69573,4.97632,1.00637,1.00634,1.00639
0.5220,0.5240,0.5230,0.2735,193.17676,5.58947,1.00633,1.00630,1.00636
0.5240,0.5260,0.5250,0.2756,199.50867,5.91304,1.00629,1.00627,1.00632
0.5260,0.5280,0.5270,0.2777,197.81429,4.73803,1.00626,1.00623,1.00629
0.5280,0.5300,0.5290,0.2798,202.52910,4.70092,1.00622,1.00619,1.00625
0.5300,0.5320,0.5310,0.2820,201.56705,5.89086,1.00619,1.00616,1.00622
0.5320,0.5340,0.5330,0.2841,205.39062,5.87140,1.00615,1.00612,1.00618
0.5340,0.5360,0.5350,0.2862,212.44100,5.04889,1.00612,1.00609,1.00615
0.5360,0.5380,0.5370,0.2884,217.83442,4.88096,1.00608,1.00605,1.00611
0.5380,0.5400,0.5390,0.2905,216.39526,5.23306,1.00605,1.00601,1.00608
0.5400,0.5420,0.5410,0.2927,222.31316,6.02197,1.00601,1.00598,1.00604
0.5420,0.5440,0.5430,0.2948,227.73989,5.73655,1.00597,1.00594,1.00600
0.5440,0.5460,0.5450,0.2970,225.00306,5.73778,1.00593,1.00589,1.00596
0.5460,0.5480,0.5470,0.2992,234.54154,6.23250,1.00589,1.00585,1.00592
0.5480,0.5500,0.5490,0.3014,235.78752,5.23052,1.00585,1.00581,1.00588
0.5500,0.5520,0.5510,0.3036,236.24479,5.65545,1.00580,1.00577,1.00584
0.5520,0.5540,0.5530,0.3058,235.05240,6.10188,1.00576,1.00573,1.00580
0.5540,0.5560,0.5550,0.3080,244.25782,6.03505,1.00572,1.00569,1.00576
0.5560,0.5580,0.5570,0.3102,241.29559,6.26508,1.00568,1.00565,1.00572
0.5580,0.5600,0.5590,0.3125,238.94439,4.88960,1.00564,1.00560,1.00568
0.5600,0.5620,0.5610,0.3147,247.56115,5.95113,1.00560,1.00556,1.00564
0.5620,0.5640,0.5630,0.3170,252.72927,6.22876,1.00556,1.00552,1.00560
0.5640,0.5660,0.5650,0.3192,254.06390,6.29356,1.00552,1.00548,1.00556
0.5660,0.5680,0.5670,0.3215,251.71134,5.89993,1.00547,1.00543,1.00551
0.5680,0.5700,0.5690,0.3238,263.51131,6.23737,1.00541,1.00537,1.00545
0.5700,0.5720,0.5710,0.3260,258.40753,5.95967,1.00536,1.00532,1.00540
0.5720,0.5740,0.5730,0.3283,257.72343,6.36086,1.00530,1.00526,1.00534
0.5740,0.5760,0.5750,0.3306,266.28274,5.16458,1.00524,1.00520,1.00528
0.5760,0.5780,0.5770,0.3329,276.45859,6.53556,1.00519,1.00514,1.00523
0.5780,0.5800,0.5790,0.3352,268.51607,6.16405,1.00513,1.00509,1.00517
0.5800,0.5820,0.5810,0.3376,278.69189,6.61913,1.00507,1.00503,1.00511
0.5820,0.5840,0.5830,0.3399,279.64724,5.81224,1.00501,1.00497,1.00506
0.5840,0.5860,0.5850,0.3422,287.12943,6.07523,1.00496,1.00491,1.00500
0.5860,0.5880,0.5870,0.3446,290.00708,5.74166,1.00490,1.00486,1.00494
0.5880,0.5900,0.5890,0.3469,289.45680,6.42293,1.00484,1.00480,1.00489
0.5900,0.5920,0.5910,0.3493,288.04814,5.95134,1.00479,1.00474,1.00483
0.5920,0.5940,0.5930,0.3516,301.11329,5.52231,1.00473,1.00468,1.00477
0.5940,0.5960,0.5950,0.3540,309.43503,6.95643,1.00466,1.00462,1.00471
0.5960,0.5980,0.5970,0.3564,321.70682,6.80183,1.00460,1.00455,1.00465
0.5980,0.6000,0.5990,0.3588,330.97345,7.60966,1.00454,1.00449,1.00458
0.6000,0.6020,0.6010,0.3612,325.41282,6.06285,1.00447,1.00442,1.00452
0.6020,0.6040,0.6030,0.3636,332.82247,5.21301,1.00440,1.00434,1.00445
0.6040,0.6060,0.6050,0.3660,336.63230,5.88944,1.00433,1.00428,1.00438
0.6060,0.6080,0.6070,0.3684,341.42771,6.67362,1.00427,1.00422,1.00432
0.6080,0.6100,0.6090,0.3709,344.51772,6.71287,1.00420,1.00415,1.00425
0.6100,0.6120,0.6110,0.3733,349.65904,5.70493,1.00413,1.00408,1.00418
0.6120,0.6140,0.6130,0.3758,353.20417,5.30912,1.00406,1.00401,1.00411
0.6140,0.6160,0.6150,0.3782,357.84372,6.82366,1.00400,1.00394,1.00405
0.6160,0.6180,0.6170,0.3807,366.57115,7.12967,1.00392,1.00387,1.00398
0.6180,0.6200,0.6190,0.3832,373.15205,5.35323,1.00385,1.00380,1.00390
0.6200,0.6220,0.6210,0.3856,377.67394,6.75055,1.00378,1.00373,1.00384
0.6220,0.6240,0.6230,0.3881,392.49515,6.66409,1.00371,1.00365,1.00376
0.6240,0.6260,0.6250,0.3906,389.93542,6.72768,1.00363,1.00358,1.00369
0.6260,0.6280,0.6270,0.3931,403.26607,7.19893,1.00356,1.00351,1.00362
0.6280,0.6300,0.6290,0.3956,409.29100,6.64353,1.00349,1.00343,1.00354
0.6300,0.6320,0.6310,0.3982,432.87237,7.16007,1.00341,1.00335,1.00347
0.6320,0.6340,0.6330,0.4007,432.31689,6.74057,1.00333,1.00328,1.00339
0.6340,0.6360,0.6350,0.4032,441.69342,7.32202,1.00326,1.00320,1.00331
0.6360,0.6380,0.6370,0.4058,447.30732,7.55775,1.00318,1.00312,1.00323
0.6380,0.6400,0.6390,0.4083,440.54282,7.26787,1.00310,1.00304,1.00315
0.6400,0.6420,0.6410,0.4109,462.62159,6.96407,1.00302,1.00296,1.00308
0.6420,0.6440,0.6430,0.4134,469.84247,7.75651,1.00295,1.00290,1.00301
0.6440,0.6460,0.6450,0.4160,473.89366,6.26555,1.00288,1.00282,1.00293
0.6460,0.6480,0.6470,0.4186,481.96533,7.71686,1.00280,1.00274,1.00286
0.6480,0.6500,0.6490,0.4212,506.77221,7.42557,1.00272,1.00266,1.00278
0.6500,0.6520,0.6510,0.4238,515.11971,7.32130,1.00264,1.00258,1.00270
0.6520,0.6540,0.6530,0.4264,521.88327,7.97169,1.00256,1.00250,1.00262
0.6540,0.6560,0.6550,0.4290,527.42105,8.10339,1.00248,1.00242,1.00254
0.6560,0.6580,0.6570,0.4316,538.88879,8.17683,1.00241,1.00235,1.00247
0.6580,0.6600,0.6590,0.4343,549.54126,8.30160,1.00233,1.00227,1.00239
0.6600,0.6620,0.6610,0.4369,556.21076,7.72668,1.00225,1.00219,1.00231
0.6620,0.6640,0.6630,0.4396,570.70416,8.09063,1.00217,1.00211,1.00224
0.6640,0.6660,0.6650,0.4422,586.91302,7.50127,1.00211,1.00204,1.00217
0.6660,0.6680,0.6670,0.4449,589.59548,7.81293,1.00204,1.00197,1.00210
0.6680,0.6700,0.6690,0.4476,602.80426,8.54057,1.00196,1.00190,1.00203
0.6700,0.6720,0.6710,0.4502,619.42896,8.63669,1.00190,1.00183,1.00196
0.6720,0.6740,0.6730,0.4529,646.47508,8.35179,1.00183,1.00177,1.00190
0.6740,0.6760,0.6750,0.4556,653.00707,9.22731,1.00177,1.00170,1.00183
0.6760,0.6780,0.6770,0.4583,670.38313,9.25269,1.00170,1.00163,1.00177
0.6780,0.6800,0.6790,0.4610,688.00206,9.06100,1.00164,1.00158,1.00171
0.6800,0.6820,0.6810,0.4638,704.23458,9.05242,1.00159,1.00152,1.00166
0.6820,0.6840,0.6830,0.4665,714.12204,9.62278,1.00154,1.00148,1.00161
0.6840,0.6860,0.6850,0.4692,738.79318,9.93198,1.00150,1.00143,1.00157
0.6860,0.6880,0.6870,0.4720,756.88629,9.10639,1.00146,1.00139,1.00153
0.6880,0.6900,0.6890,0.4747,762.36027,9.25970,1.00143,1.00136,1.00150
0.6900,0.6920,0.6910,0.4775,798.39878,10.47880,1.00141,1.00134,1.00148
0.6920,0.6940,0.6930,0.4802,802.30551,8.97791,1.00139,1.00132,1.00147
0.6940,0.6960,0.6950,0.4830,830.19277,9.59223,1.00139,1.00132,1.00146
0.6960,0.6980,0.6970,0.4858,852.33150,10.46680,1.00139,1.00131,1.00146
0.6980,0.7000,0.6990,0.4886,858.30057,10.48340,1.00139,1.00132,1.00146
0.7000,0.7020,0.7010,0.4914,875.29270,10.78170,1.00141,1.00134,1.00148
0.7020,0.7040,0.7030,0.4942,882.79633,11.08940,1.00145,1.00138,1.00152
0.7040,0.7060,0.7050,0.4970,905.02176,10.46560,1.00149,1.00142,1.00157
0.7060,0.7080,0.7070,0.4998,944.68860,11.46070,1.00153,1.00145,1.00161
0.7080,0.7100,0.7090,0.5027,943.54126,11.06810,1.00161,1.00154,1.00169
0.7100,0.7120,0.7110,0.5055,974.28913,11.76190,1.00170,1.00162,1.00177
0.7120,0.7140,0.7130,0.5084,1000.54725,11.75770,1.00178,1.00170,1.00186
0.7140,0.7160,0.7150,0.5112,1011.21021,12.20180,1.00188,1.00180,1.00196
0.7160,0.7180,0.7170,0.5141,1042.99867,11.85940,1.00201,1.00193,1.00209
0.7180,0.7200,0.7190,0.5170,1061.49113,11.54540,1.00213,1.00205,1.00222
0.7200,0.7220,0.7210,0.5198,1075.26115,12.72490,1.00225,1.00217,1.00234
0.7220,0.7240,0.7230,0.5227,1103.93204,12.95440,1.00244,1.00235,1.00252
0.7240,0.7260,0.7250,0.5256,1105.33212,12.65790,1.00262,1.00253,1.00271
0.7260,0.7280,0.7270,0.5285,1133.27514,11.62020,1.00280,1.00272,1.00289
0.7280,0.7300,0.7290,0.5314,1149.53582,13.10840,1.00308,1.00299,1.00317
0.7300,0.7320,0.7310,0.5344,1158.38465,12.44900,1.00347,1.00338,1.00356
0.7320,0.7340,0.7330,0.5373,1195.22869,12.57230,1.00384,1.00376,1.00393
0.7340,0.7360,0.7350,0.5402,1208.12010,13.65490,1.00422,1.00413,1.00430
0.7360,0.7380,0.7370,0.5432,1235.70723,12.32350,1.00436,1.00427,1.00445
0.7380,0.7400,0.7390,0.5461,1266.28763,14.21190,1.00449,1.00440,1.00459
0.7400,0.7420,0.7410,0.5491,1266.64171,12.45160,1.00463,1.00453,1.00473
0.7420,0.7440,0.7430,0.5520,1278.59271,14.20560,1.00484,1.00473,1.00495
0.7440,0.7460,0.7450,0.5550,1280.13513,12.50970,1.00514,1.00503,1.00526
0.7460,0.7480,0.7470,0.5580,1293.24419,14.35210,1.00544,1.00532,1.00556
0.7480,0.7500,0.7490,0.5610,1316.37608,14.29860,1.00574,1.00561,1.00586
0.7500,0.7520,0.7510,0.5640,1317.56288,13.07310,1.00603,1.00589,1.00617
0.7520,0.7540,0.7530,0.5670,1322.69003,13.69370,1.00634,1.00619,1.00648
0.7540,0.7560,0.7550,0.5700,1337.74471,13.77880,1.00664,1.00649,1.00679
0.7560,0.7580,0.7570,0.5730,1310.37952,14.41030,1.00686,1.00670,1.00701
0.7580,0.7600,0.7590,0.5761,1313.84767,13.27560,1.00702,1.00685,1.00719
0.7600,0.7620,0.7610,0.5791,1320.90855,13.86240,1.00714,1.00696,1.00732
0.7620,0.7640,0.7630,0.5822,1327.30978,13.32240,1.00722,1.00702,1.00741
0.7640,0.7660,0.7650,0.5852,1318.28028,13.73320,1.00725,1.00704,1.00746
0.7660,0.7680,0.7670,0.5883,1312.43458,12.97890,1.00708,1.00684,1.00731
0.7680,0.7700,0.7690,0.5914,1320.66649,14.59730,1.00683,1.00657,1.00710
0.7700,0.7720,0.7710,0.5944,1312.79290,14.48170,1.00642,1.00612,1.00671
0.7720,0.7740,0.7730,0.5975,1325.46269,14.47270,1.00586,1.00553,1.00619
0.7740,0.7760,0.7750,0.6006,1331.85956,14.71000,1.00518,1.00480,1.00555
0.7760,0.7780,0.7770,0.6037,1333.77284,14.80830,1.00497,1.00458,1.00536
0.7780,0.7800,0.7790,0.6068,1311.42161,12.97130,1.00669,1.00626,1.00713
0.7800,0.7820,0.7810,0.6100,1194.69516,13.50100,1.01363,1.01333,1.01393
0.7820,0.7840,0.7830,0.6131,985.96549,11.44790,1.02695,1.02683,1.02707
0.7840,0.7860,0.7850,0.6162,866.01369,10.15920,1.03675,1.03634,1.03717
0.7860,0.7880,0.7870,0.6194,831.70839,10.02970,1.03801,1.03751,1.03850
0.7880,0.7900,0.7890,0.6225,831.51149,9.75744,1.03627,1.03582,1.03673
0.7900,0.7920,0.7910,0.6257,822.41925,8.80198,1.03406,1.03366,1.03445
0.7920,0.7940,0.7930,0.6288,822.36304,8.95940,1.03229,1.03195,1.03264
0.7940,0.7960,0.7950,0.6320,829.93273,10.16550,1.03080,1.03049,1.03110
0.7960,0.7980,0.7970,0.6352,814.40854,9.85160,1.02975,1.02947,1.03002
0.7980,0.8000,0.7990,0.6384,786.56209,8.90542,1.02894,1.02871,1.02917
0.8000,0.8020,0.8010,0.6416,775.41240,8.71936,1.02819,1.02799,1.02839
0.8020,0.8040,0.8030,0.6448,761.92643,9.46256,1.02771,1.02750,1.02791
0.8040,0.8060,0.8050,0.6480,747.17166,8.48462,1.02744,1.02725,1.02764
0.8060,0.8080,0.8070,0.6512,721.76871,7.90131,1.02709,1.02691,1.02728
0.8080,0.8100,0.8090,0.6545,700.67011,8.51080,1.02678,1.02661,1.02696
0.8100,0.8120,0.8110,0.6577,677.10461,8.68613,1.02657,1.02641,1.02673
0.8120,0.8140,0.8130,0.6610,657.36134,8.32101,1.02643,1.02628,1.02658
0.8140,0.8160,0.8150,0.6642,651.41218,8.35477,1.02627,1.02614,1.02641
0.8160,0.8180,0.8170,0.6675,624.08161,8.29506,1.02609,1.02596,1.02623
0.8180,0.8200,0.8190,0.6708,599.22512,7.26060,1.02600,1.02587,1.02612
0.8200,0.8220,0.8210,0.6740,594.32590,7.00189,1.02590,1.02578,1.02602
0.8220,0.8240,0.8230,0.6773,580.22643,7.80643,1.02579,1.02568,1.02591
0.8240,0.8260,0.8250,0.6806,547.80980,7.62455,1.02568,1.02557,1.02579
0.8260,0.8280,0.8270,0.6839,544.83855,7.34869,1.02555,1.02544,1.02566
0.8280,0.8300,0.8290,0.6872,529.45952,6.88818,1.02544,1.02533,1.02554
0.8300,0.8320,0.8310,0.6906,506.54346,7.08034,1.02532,1.02522,1.02542
0.8320,0.8340,0.8330,0.6939,492.97555,6.91965,1.02521,1.02511,1.02531
0.8340,0.8360,0.8350,0.6972,476.86166,6.69314,1.02510,1.02500,1.02519
0.8360,0.8380,0.8370,0.7006,465.24795,6.80354,1.02498,1.02489,1.02508
0.8380,0.8400,0.8390,0.7039,451.14392,5.84514,1.02487,1.02478,1.02496
0.8400,0.8420,0.8410,0.7073,435.73773,6.29826,1.02475,1.02466,1.02484
0.8420,0.8440,0.8430,0.7106,420.26603,6.34874,1.02464,1.02455,1.02472
0.8440,0.8460,0.8450,0.7140,410.06291,5.43764,1.02452,1.02444,1.02461
0.8460,0.8480,0.8470,0.7174,401.24086,6.16992,1.02441,1.02432,1.02449
0.8480,0.8500,0.8490,0.7208,378.96313,5.07024,1.02429,1.02421,1.02438
0.8500,0.8520,0.8510,0.7242,372.18787,5.54278,1.02418,1.02409,1.02426
0.8520,0.8540,0.8530,0.7276,365.81947,5.73991,1.02406,1.02398,1.02414
0.8540,0.8560,0.8550,0.7310,338.70462,5.44493,1.02394,1.02386,1.02403
0.8560,0.8580,0.8570,0.7344,332.29960,4.78480,1.02383,1.02375,1.02391
0.8580,0.8600,0.8590,0.7379,329.41185,4.76065,1.02371,1.02363,1.02379
0.8600,0.8620,0.8610,0.7413,315.29128,4.84528,1.02359,1.02351,1.02367
0.8620,0.8640,0.8630,0.7448,315.03973,5.25050,1.02347,1.02339,1.02355
0.8640,0.8660,0.8650,0.7482,300.62536,5.13391,1.02335,1.02327,1.02343
0.8660,0.8680,0.8670,0.7517,295.88853,4.33473,1.02323,1.02315,1.02331
0.8680,0.8700,0.8690,0.7552,286.37727,4.71602,1.02311,1.02303,1.02319
0.8700,0.8720,0.8710,0.7586,273.24613,4.84049,1.02299,1.02291,1.02307
0.8720,0.8740,0.8730,0.7621,262.97477,4.61824,1.02286,1.02279,1.02294
0.8740,0.8760,0.8750,0.7656,262.87379,4.05910,1.02274,1.02266,1.02282
0.8760,0.8780,0.8770,0.7691,252.67716,3.81778,1.02261,1.02253,1.02269
0.8780,0.8800,0.8790,0.7726,242.88220,4.54679,1.02248,1.02241,1.02256
0.8800,0.8820,0.8810,0.7762,236.67343,3.65542,1.02235,1.02227,1.02243
0.8820,0.8840,0.8830,0.7797,234.51766,4.43607,1.02223,1.02215,1.02230
0.8840,0.8860,0.8850,0.7832,228.63364,3.51008,1.02210,1.02202,1.02217
0.8860,0.8880,0.8870,0.7868,224.88251,3.69221,1.02196,1.02189,1.02204
0.8880,0.8900,0.8890,0.7903,210.19465,3.33349,1.02184,1.02176,1.02191
0.8900,0.8920,0.8910,0.7939,211.49103,4.01305,1.02171,1.02163,1.02178
0.8920,0.8940,0.8930,0.7974,203.65743,4.05319,1.02158,1.02150,1.02166
0.8940,0.8960,0.8950,0.8010,197.63820,3.59671,1.02145,1.02137,1.02153
0.8960,0.8980,0.8970,0.8046,199.53421,3.84660,1.02132,1.02124,1.02140
0.8980,0.9000,0.8990,0.8082,192.68561,3.29938,1.02120,1.02112,1.02128
0.9000,0.9020,0.9010,0.8118,186.71016,3.30402,1.02107,1.02099,1.02115
0.9020,0.9040,0.9030,0.8154,183.34630,3.86473,1.02094,1.02086,1.02102
0.9040,0.9060,0.9050,0.8190,175.52553,3.42085,1.02081,1.02073,1.02089
0.9060,0.9080,0.9070,0.8226,168.74056,3.02536,1.02069,1.02060,1.02077
0.9080,0.9100,0.9090,0.8263,160.01698,3.52612,1.02056,1.02048,1.02064
0.9100,0.9120,0.9110,0.8299,159.97059,3.33427,1.02044,1.02035,1.02052
0.9120,0.9140,0.9130,0.8336,155.64886,3.44126,1.02031,1.02022,1.02039
0.9140,0.9160,0.9150,0.8372,148.08217,3.10591,1.02018,1.02009,1.02026
0.9160,0.9180,0.9170,0.8409,147.35694,2.76511,1.02005,1.01996,1.02013
0.9180,0.9200,0.9190,0.8446,145.09733,3.42667,1.01992,1.01983,1.02000
0.9200,0.9220,0.9210,0.8482,135.64572,2.57948,1.01979,1.01970,1.01988
0.9220,0.9240,0.9230,0.8519,139.37296,3.22257,1.01966,1.01957,1.01975
0.9240,0.9260,0.9250,0.8556,132.80268,3.18767,1.01952,1.01943,1.01961
0.9260,0.9280,0.9270,0.8593,128.58486,3.14486,1.01938,1.01929,1.01947
0.9280,0.9300,0.9290,0.8630,127.81609,2.50977,1.01923,1.01914,1.01932
0.9300,0.9320,0.9310,0.8668,123.24168,3.00352,1.01908,1.01899,1.01918
0.9320,0.9340,0.9330,0.8705,122.26920,3.02470,1.01894,1.01885,1.01904
0.9340,0.9360,0.9350,0.8742,115.36806,2.84473,1.01879,1.01869,1.01889
0.9360,0.9380,0.9370,0.8780,112.60636,2.69351,1.01864,1.01854,1.01873
0.9380,0.9400,0.9390,0.8817,109.42133,2.43689,1.01848,1.01838,1.01858
0.9400,0.9420,0.9410,0.8855,111.14764,2.33278,1.01832,1.01822,1.01842
0.9420,0.9440,0.9430,0.8892,107.67610,2.63038,1.01816,1.01805,1.01826
0.9440,0.9460,0.9450,0.8930,103.33404,2.16834,1.01798,1.01788,1.01809
0.9460,0.9480,0.9470,0.8968,105.92820,2.52356,1.01781,1.01770,1.01792
0.9480,0.9500,0.9490,0.9006,99.29495,2.58985,1.01764,1.01753,1.01775
0.9500,0.9520,0.9510,0.9044,99.88987,2.63741,1.01746,1.01734,1.01757
0.9520,0.9540,0.9530,0.9082,98.93367,2.60154,1.01727,1.01716,1.01739
0.9540,0.9560,0.9550,0.9120,94.62272,2.54042,1.01709,1.01697,1.01720
0.9560,0.9580,0.9570,0.9158,94.94549,2.57963,1.01689,1.01677,1.01702
0.9580,0.9600,0.9590,0.9197,89.25667,2.13248,1.01669,1.01657,1.01682
0.9600,0.9620,0.9610,0.9235,88.40681,2.54816,1.01648,1.01635,1.01661
0.9620,0.9640,0.9630,0.9274,86.31534,1.95674,1.01625,1.01612,1.01638
0.9640,0.9660,0.9650,0.9312,82.38138,2.09390,1.01601,1.01588,1.01615
0.9660,0.9680,0.9670,0.9351,80.81125,2.13539,1.01576,1.01562,1.01590
0.9680,0.9700,0.9690,0.9390,79.51348,2.32598,1.01549,1.01534,1.01564
0.9700,0.9720,0.9710,0.9428,79.14629,2.38683,1.01522,1.01507,1.01537
0.9720,0.9740,0.9730,0.9467,82.09293,2.39002,1.01493,1.01478,1.01509
0.9740,0.9760,0.9750,0.9506,76.11460,1.74979,1.01464,1.01448,1.01481
0.9760,0.9780,0.9770,0.9545,73.13964,2.07533,1.01434,1.01417,1.01451
0.9780,0.9800,0.9790,0.9584,73.99405,2.12724,1.01401,1.01384,1.01419
0.9800,0.9820,0.9810,0.9624,70.70188,1.96335,1.01363,1.01345,1.01381
0.9820,0.9840,0.9830,0.9663,71.92956,1.81812,1.01322,1.01303,1.01341
0.9840,0.9860,0.9850,0.9702,67.17074,2.18207,1.01274,1.01254,1.01294
0.9860,0.9880,0.9870,0.9742,68.83092,1.97739,1.01220,1.01199,1.01241
0.9880,0.9900,0.9890,0.9781,64.37755,1.90782,1.01159,1.01136,1.01182
0.9900,0.9920,0.9910,0.9821,66.50319,2.15347,1.01089,1.01065,1.01114
0.9920,0.9940,0.9930,0.9860,63.60856,1.71685,1.01016,1.00989,1.01042
0.9940,0.9960,0.9950,0.9900,63.42893,1.69409,1.00932,1.00903,1.00961
0.9960,0.9980,0.9970,0.9940,61.82197,1.81624,1.00839,1.00807,1.00870
0.9980,1.0000,0.9990,0.9980,61.39067,2.06360,1.00724,1.00688,1.00760
1.0000,1.0100,1.0050,1.0100,59.46317,1.57942,1.00151,1.00104,1.00199
1.0100,1.0200,1.0150,1.0302,55.48840,1.48186,0.97282,0.97164,0.97401
1.0200,1.0300,1.0250,1.0506,42.67400,1.16288,1.06278,1.06152,1.06403
1.0300,1.0400,1.0350,1.0712,42.76089,1.29947,1.03587,1.03537,1.03638
1.0400,1.0500,1.0450,1.0920,39.75994,1.19043,1.02940,1.02909,1.02971
1.0500,1.0600,1.0550,1.1130,36.72077,1.08106,1.02655,1.02633,1.02678
1.0600,1.0700,1.0650,1.1342,34.88315,1.15828,1.02482,1.02463,1.02501
1.0700,1.0800,1.0750,1.1556,33.36570,1.15134,1.02361,1.02345,1.02378
1.0800,1.0900,1.0850,1.1772,30.03311,1.00221,1.02273,1.02257,1.02288
1.0900,1.1000,1.0950,1.1990,29.61138,0.97824,1.02204,1.02189,1.02218
1.1000,1.1100,1.1050,1.2210,26.33881,0.94559,1.02149,1.02135,1.02162
1.1100,1.1200,1.1150,1.2432,25.22423,0.95938,1.02101,1.02087,1.02114
1.1200,1.1300,1.1250,1.2656,22.87804,0.90616,1.02059,1.02046,1.02072
